time (fs),deltaI
382.217,-0.01054825
382.159799,-1.013060966
382.1025981,-2.279392819
382.0453971,-3.281905536
381.9881961,-4.231654426
381.9309952,-5.497986278
381.8737942,-6.553262822
381.8165932,-7.080901094
381.7593923,-7.291956403
381.7021913,-7.133664922
381.6449903,-6.869845786
381.5877893,-6.289443686
381.5305884,-5.392458624
381.4733874,-4.759292698
381.4161864,-3.915071462
381.3589855,-3.756779981
381.3017845,-3.176377882
381.2445835,-2.543211955
381.1873826,-1.857282202
381.1301816,-1.171352448
381.0729806,-1.276880102
381.0157797,-1.487935411
380.9585787,-1.910046029
380.9013777,-2.279392819
380.8441768,-2.859794918
380.7869758,-3.492960845
380.7297748,-4.073362944
380.6725739,-4.864820352
380.6153729,-5.075875661
380.5581719,-5.339694797
380.5009709,-5.392458624
380.44377,-5.392458624
380.386569,-4.970348006
380.329368,-4.178890598
380.2721671,-3.123614054
380.2149661,-2.06833751
380.1577651,-1.32964393
380.1005642,-0.696478003
380.0433632,-0.063312077
379.9861622,0.517090022
379.9289613,0.728145331
379.8717603,0.728145331
379.8145593,0.464326195
379.7573584,-0.168839731
379.7001574,-0.37989504
379.6429564,-0.907533312
379.5857555,-1.540699238
379.5285545,-2.543211955
379.4713535,-3.38743319
379.4141525,-4.126126771
379.3569516,-4.70652887
379.2997506,-5.075875661
379.2425496,-5.497986278
379.1853487,-5.550750106
379.1281477,-5.128639488
379.0709467,-4.548237389
379.0137458,-4.020599117
378.9565448,-3.651252326
378.8993438,-2.965322573
378.8421429,-2.595975782
378.7849419,-2.121101338
378.7277409,-1.857282202
378.67054,-2.015573683
378.613339,-2.06833751
378.556138,-2.06833751
378.498937,-2.015573683
378.4417361,-2.490448128
378.3845351,-2.859794918
378.3273341,-3.651252326
378.2701332,-4.389945907
378.2129322,-4.917584179
378.1557312,-5.497986278
378.0985303,-5.867333069
378.0413293,-6.236679859
377.9841283,-6.02562455
377.9269274,-5.709041587
377.8697264,-5.128639488
377.8125254,-4.653765043
377.7553245,-4.442709734
377.6981235,-3.915071462
377.6409225,-3.440197018
377.5837216,-2.64873961
377.5265206,-2.279392819
377.4693196,-1.804518374
377.4121186,-1.646226893
377.3549177,-1.540699238
377.2977167,-1.487935411
377.2405157,-2.015573683
377.1833148,-2.754267264
377.1261138,-3.809543808
377.0689128,-4.495473562
377.0117119,-5.075875661
376.9545109,-5.339694797
376.8973099,-5.445222451
376.840109,-5.497986278
376.782908,-5.075875661
376.725707,-4.548237389
376.6685061,-3.809543808
376.6113051,-3.545724672
376.5541041,-3.070850227
376.4969032,-2.595975782
376.4397022,-2.121101338
376.3825012,-1.435171584
376.3253002,-1.065824794
376.2680993,-0.854769485
376.2108983,-0.907533312
376.1536973,-0.74924183
376.0964964,-0.854769485
376.0392954,-1.540699238
375.9820944,-2.384920474
375.9248935,-3.440197018
375.8676925,-4.389945907
375.8104915,-4.970348006
375.7532906,-5.392458624
375.6960896,-5.867333069
375.6388886,-5.972860723
375.5816877,-5.603513933
375.5244867,-5.234167142
375.4672857,-4.495473562
375.4100848,-3.96783529
375.3528838,-3.440197018
375.2956828,-2.595975782
375.2384818,-1.804518374
375.1812809,-1.065824794
375.1240799,-0.802005658
375.0668789,-0.538186522
375.009678,-0.590950349
374.952477,-0.696478003
374.895276,-1.118588621
374.8380751,-1.962809856
374.7808741,-2.965322573
374.7236731,-3.809543808
374.6664722,-4.442709734
374.6092712,-4.970348006
374.5520702,-5.023111834
374.4948693,-5.28693097
374.4376683,-5.28693097
374.3804673,-4.917584179
374.3232664,-4.495473562
374.2660654,-4.020599117
374.2088644,-3.809543808
374.1516634,-3.492960845
374.0944625,-2.807031091
374.0372615,-2.015573683
373.9800605,-1.065824794
373.9228596,-0.696478003
373.8656586,-0.538186522
373.8084576,-0.432658867
373.7512567,-0.590950349
373.6940557,-1.118588621
373.6368547,-1.804518374
373.5796538,-2.701503437
373.5224528,-3.492960845
373.4652518,-3.756779981
373.4080509,-4.126126771
373.3508499,-4.442709734
373.2936489,-4.70652887
373.236448,-4.970348006
373.179247,-4.917584179
373.122046,-4.864820352
373.064845,-4.495473562
373.0076441,-4.442709734
372.9504431,-3.96783529
372.8932421,-3.492960845
372.8360412,-2.543211955
372.7788402,-1.962809856
372.7216392,-1.751754547
372.6644383,-1.593463066
372.6072373,-1.804518374
372.5500363,-1.751754547
372.4928354,-2.06833751
372.4356344,-2.754267264
372.3784334,-3.38743319
372.3212325,-3.809543808
372.2640315,-3.96783529
372.2068305,-4.284418253
372.1496295,-4.284418253
372.0924286,-4.495473562
372.0352276,-4.442709734
371.9780266,-4.073362944
371.9208257,-3.651252326
371.8636247,-3.440197018
371.8064237,-3.070850227
371.7492228,-2.332156646
371.6920218,-1.804518374
371.6348208,-1.013060966
371.5776199,-0.538186522
371.5204189,-0.432658867
371.4632179,-0.485422694
371.406017,-0.643714176
371.348816,-0.960297139
371.291615,-1.69899072
371.2344141,-2.437684301
371.1772131,-3.492960845
371.1200121,-4.33718208
371.0628111,-4.812056525
371.0056102,-5.392458624
370.9484092,-5.972860723
370.8912082,-6.447735168
370.8340073,-6.553262822
370.7768063,-6.447735168
370.7196053,-6.236679859
370.6624044,-5.814569242
370.6052034,-5.339694797
370.5480024,-4.389945907
370.4908015,-3.38743319
370.4336005,-2.121101338
370.3763995,-1.276880102
370.3191986,-0.538186522
370.2619976,-0.168839731
370.2047966,0.042215578
370.1475957,-0.116075904
370.0903947,-0.802005658
370.0331937,-1.646226893
369.9759927,-2.437684301
369.9187918,-3.0180864
369.8615908,-3.598488499
369.8043898,-3.915071462
369.7471889,-4.178890598
369.6899879,-4.33718208
369.6327869,-4.178890598
369.575586,-3.96783529
369.518385,-3.492960845
369.461184,-3.334669363
369.4039831,-2.912558746
369.3467821,-2.332156646
369.2895811,-1.69899072
369.2323802,-0.907533312
369.1751792,-0.485422694
369.1179782,-0.327131213
369.0607773,-0.274367386
369.0035763,-0.274367386
368.9463753,-0.74924183
368.8891743,-1.540699238
368.8319734,-2.384920474
368.7747724,-3.38743319
368.7175714,-4.073362944
368.6603705,-4.495473562
368.6031695,-4.812056525
368.5459685,-5.181403315
368.4887676,-5.445222451
368.4315666,-5.603513933
368.3743656,-5.497986278
368.3171647,-5.234167142
368.2599637,-5.023111834
368.2027627,-4.495473562
368.1455618,-3.756779981
368.0883608,-2.701503437
368.0311598,-1.69899072
367.9739589,-0.907533312
367.9167579,-0.274367386
367.8595569,-0.063312077
367.8023559,-0.063312077
367.745155,-0.432658867
367.687954,-1.224116275
367.630753,-2.121101338
367.5735521,-3.070850227
367.5163511,-3.756779981
367.4591501,-4.442709734
367.4019492,-5.023111834
367.3447482,-5.709041587
367.2875472,-6.342207514
367.2303463,-6.342207514
367.1731453,-6.289443686
367.1159443,-6.236679859
367.0587434,-5.920096896
367.0015424,-5.392458624
366.9443414,-4.70652887
366.8871405,-3.756779981
366.8299395,-2.859794918
366.7727385,-2.332156646
366.7155375,-1.910046029
366.6583366,-1.751754547
366.6011356,-1.751754547
366.5439346,-1.910046029
366.4867337,-2.437684301
366.4295327,-2.912558746
366.3723317,-3.651252326
366.3151308,-3.862307635
366.2579298,-4.442709734
366.2007288,-4.812056525
366.1435279,-5.392458624
366.0863269,-5.445222451
366.0291259,-5.234167142
365.971925,-5.128639488
365.914724,-4.548237389
365.857523,-4.126126771
365.800322,-3.334669363
365.7431211,-2.226628992
365.6859201,-1.065824794
365.6287191,-0.063312077
365.5715182,0.306034714
365.5143172,0.728145331
365.4571162,0.622617677
365.3999153,0.728145331
365.3427143,0.306034714
365.2855133,-0.327131213
365.2283124,-1.065824794
365.1711114,-1.593463066
365.1139104,-2.173865165
365.0567095,-2.595975782
364.9995085,-3.0180864
364.9423075,-3.545724672
364.8851066,-3.704016154
364.8279056,-3.651252326
364.7707046,-3.440197018
364.7135036,-3.38743319
364.6563027,-3.334669363
364.5991017,-2.859794918
364.5419007,-2.595975782
364.4846998,-1.962809856
364.4274988,-1.593463066
364.3702978,-1.435171584
364.3130969,-1.224116275
364.2558959,-1.065824794
364.1986949,-0.960297139
364.141494,-1.382407757
364.084293,-1.804518374
364.027092,-2.490448128
363.9698911,-2.859794918
363.9126901,-3.176377882
363.8554891,-3.545724672
363.7982882,-4.020599117
363.7410872,-4.759292698
363.6838862,-5.023111834
363.6266852,-5.445222451
363.5694843,-5.550750106
363.5122833,-5.65627776
363.4550823,-5.761805414
363.3978814,-5.339694797
363.3406804,-4.70652887
363.2834794,-3.915071462
363.2262785,-3.492960845
363.1690775,-2.912558746
363.1118765,-2.595975782
363.0546756,-2.332156646
362.9974746,-1.910046029
362.9402736,-2.332156646
362.8830727,-2.595975782
362.8258717,-2.859794918
362.7686707,-2.965322573
362.7114698,-3.38743319
362.6542688,-3.598488499
362.5970678,-3.862307635
362.5398668,-4.601001216
362.4826659,-4.548237389
362.4254649,-4.70652887
362.3682639,-4.495473562
362.311063,-4.601001216
362.253862,-4.284418253
362.196661,-4.073362944
362.1394601,-3.756779981
362.0822591,-3.123614054
362.0250581,-3.070850227
361.9678572,-2.543211955
361.9106562,-2.173865165
361.8534552,-1.487935411
361.7962543,-1.171352448
361.7390533,-1.118588621
361.6818523,-1.435171584
361.6246514,-2.121101338
361.5674504,-2.384920474
361.5102494,-3.123614054
361.4530484,-3.651252326
361.3958475,-4.495473562
361.3386465,-4.812056525
361.2814455,-5.075875661
361.2242446,-5.128639488
361.1670436,-4.970348006
361.1098426,-5.023111834
361.0526417,-4.653765043
360.9954407,-4.073362944
360.9382397,-3.38743319
360.8810388,-2.64873961
360.8238378,-2.121101338
360.7666368,-1.593463066
360.7094359,-1.118588621
360.6522349,-0.485422694
360.5950339,-0.274367386
360.537833,-0.274367386
360.480632,-0.590950349
360.423431,-1.013060966
360.36623,-1.382407757
360.3090291,-2.015573683
360.2518281,-2.807031091
360.1946271,-3.809543808
360.1374262,-4.495473562
360.0802252,-4.864820352
360.0230242,-5.023111834
359.9658233,-5.023111834
359.9086223,-4.970348006
359.8514213,-4.548237389
359.7942204,-3.96783529
359.7370194,-3.229141709
359.6798184,-2.490448128
359.6226175,-2.226628992
359.5654165,-1.751754547
359.5082155,-1.487935411
359.4510145,-0.854769485
359.3938136,-0.802005658
359.3366126,-0.907533312
359.2794116,-1.224116275
359.2222107,-1.751754547
359.1650097,-2.121101338
359.1078087,-2.64873961
359.0506078,-3.38743319
358.9934068,-4.389945907
358.9362058,-4.917584179
358.8790049,-5.339694797
358.8218039,-5.603513933
358.7646029,-5.603513933
358.707402,-5.761805414
358.650201,-5.550750106
358.593,-5.181403315
358.5357991,-4.389945907
358.4785981,-4.020599117
358.4213971,-3.598488499
358.3641961,-2.965322573
358.3069952,-2.64873961
358.2497942,-2.06833751
358.1925932,-2.015573683
358.1353923,-2.226628992
358.0781913,-2.543211955
358.0209903,-2.595975782
357.9637894,-2.754267264
357.9065884,-3.123614054
357.8493874,-3.492960845
357.7921865,-4.389945907
357.7349855,-4.70652887
357.6777845,-4.864820352
357.6205836,-4.970348006
357.5633826,-5.128639488
357.5061816,-5.181403315
357.4489807,-4.864820352
357.3917797,-4.548237389
357.3345787,-3.862307635
357.2773777,-3.651252326
357.2201768,-3.492960845
357.1629758,-3.281905536
357.1057748,-3.123614054
357.0485739,-2.807031091
356.9913729,-2.701503437
356.9341719,-2.701503437
356.876971,-2.965322573
356.81977,-2.754267264
356.762569,-2.701503437
356.7053681,-2.859794918
356.6481671,-3.281905536
356.5909661,-3.862307635
356.5337652,-4.33718208
356.4765642,-4.601001216
356.4193632,-4.70652887
356.3621623,-5.023111834
356.3049613,-4.970348006
356.2477603,-4.442709734
356.1905593,-3.915071462
356.1333584,-3.281905536
356.0761574,-3.0180864
356.0189564,-2.595975782
355.9617555,-2.384920474
355.9045545,-1.962809856
355.8473535,-1.487935411
355.7901526,-1.435171584
355.7329516,-1.32964393
355.6757506,-1.487935411
355.6185497,-1.276880102
355.5613487,-1.487935411
355.5041477,-1.804518374
355.4469468,-2.490448128
355.3897458,-3.38743319
355.3325448,-3.598488499
355.2753439,-3.96783529
355.2181429,-4.126126771
355.1609419,-4.601001216
355.1037409,-4.601001216
355.04654,-4.442709734
354.989339,-3.96783529
354.932138,-3.545724672
354.8749371,-3.545724672
354.8177361,-3.334669363
354.7605351,-3.229141709
354.7033342,-2.701503437
354.6461332,-2.384920474
354.5889322,-2.279392819
354.5317313,-2.06833751
354.4745303,-2.06833751
354.4173293,-1.69899072
354.3601284,-1.69899072
354.3029274,-1.69899072
354.2457264,-2.279392819
354.1885255,-2.64873961
354.1313245,-2.807031091
354.0741235,-3.38743319
354.0169225,-3.598488499
353.9597216,-4.126126771
353.9025206,-4.126126771
353.8453196,-4.073362944
353.7881187,-3.440197018
353.7309177,-3.176377882
353.6737167,-2.859794918
353.6165158,-2.437684301
353.5593148,-2.226628992
353.5021138,-1.540699238
353.4449129,-1.593463066
353.3877119,-1.646226893
353.3305109,-2.015573683
353.27331,-2.015573683
353.216109,-2.279392819
353.158908,-2.64873961
353.101707,-3.123614054
353.0445061,-3.862307635
352.9873051,-4.178890598
352.9301041,-4.284418253
352.8729032,-4.389945907
352.8157022,-4.70652887
352.7585012,-4.970348006
352.7013003,-5.023111834
352.6440993,-5.023111834
352.5868983,-4.495473562
352.5296974,-4.33718208
352.4724964,-4.33718208
352.4152954,-3.96783529
352.3580945,-3.334669363
352.3008935,-2.701503437
352.2436925,-2.384920474
352.1864916,-2.015573683
352.1292906,-2.06833751
352.0720896,-1.857282202
352.0148886,-1.435171584
351.9576877,-1.435171584
351.9004867,-1.69899072
351.8432857,-2.121101338
351.7860848,-2.279392819
351.7288838,-2.64873961
351.6716828,-2.912558746
351.6144819,-3.440197018
351.5572809,-4.126126771
351.5000799,-4.231654426
351.442879,-4.178890598
351.385678,-3.915071462
351.328477,-3.809543808
351.2712761,-3.492960845
351.2140751,-3.229141709
351.1568741,-2.701503437
351.0996732,-2.279392819
351.0424722,-2.226628992
350.9852712,-2.332156646
350.9280702,-2.64873961
350.8708693,-2.437684301
350.8136683,-2.437684301
350.7564673,-2.332156646
350.6992664,-2.332156646
350.6420654,-2.543211955
350.5848644,-2.226628992
350.5276635,-2.332156646
350.4704625,-2.384920474
350.4132615,-3.070850227
350.3560606,-3.492960845
350.2988596,-3.915071462
350.2416586,-4.020599117
350.1844577,-3.96783529
350.1272567,-4.178890598
350.0700557,-4.126126771
350.0128548,-4.020599117
349.9556538,-3.598488499
349.8984528,-3.176377882
349.8412518,-2.807031091
349.7840509,-2.543211955
349.7268499,-2.490448128
349.6696489,-2.015573683
349.612448,-1.804518374
349.555247,-1.69899072
349.498046,-2.06833751
349.4408451,-2.121101338
349.3836441,-2.332156646
349.3264431,-2.384920474
349.2692422,-2.754267264
349.2120412,-3.38743319
349.1548402,-3.809543808
349.0976393,-3.915071462
349.0404383,-3.756779981
348.9832373,-3.651252326
348.9260364,-3.440197018
348.8688354,-3.070850227
348.8116344,-2.543211955
348.7544334,-1.910046029
348.6972325,-1.593463066
348.6400315,-1.646226893
348.5828305,-2.015573683
348.5256296,-2.173865165
348.4684286,-2.226628992
348.4112276,-2.332156646
348.3540267,-2.64873961
348.2968257,-2.965322573
348.2396247,-3.440197018
348.1824238,-3.38743319
348.1252228,-3.440197018
348.0680218,-3.704016154
348.0108209,-4.126126771
347.9536199,-4.389945907
347.8964189,-4.33718208
347.839218,-4.442709734
347.782017,-4.389945907
347.724816,-4.917584179
347.667615,-4.970348006
347.6104141,-4.759292698
347.5532131,-4.33718208
347.4960121,-3.96783529
347.4388112,-3.598488499
347.3816102,-3.070850227
347.3244092,-2.807031091
347.2672083,-2.015573683
347.2100073,-1.857282202
347.1528063,-2.015573683
347.0956054,-2.121101338
347.0384044,-2.384920474
346.9812034,-2.595975782
346.9240025,-3.070850227
346.8668015,-3.756779981
346.8096005,-4.653765043
346.7523995,-4.970348006
346.6951986,-5.023111834
346.6379976,-4.917584179
346.5807966,-4.759292698
346.5235957,-4.548237389
346.4663947,-4.126126771
346.4091937,-3.38743319
346.3519928,-2.384920474
346.2947918,-2.06833751
346.2375908,-1.857282202
346.1803899,-1.804518374
346.1231889,-1.593463066
346.0659879,-1.540699238
346.008787,-1.69899072
345.951586,-2.015573683
345.894385,-2.437684301
345.8371841,-2.595975782
345.7799831,-2.595975782
345.7227821,-2.912558746
345.6655811,-3.492960845
345.6083802,-3.915071462
345.5511792,-4.178890598
345.4939782,-4.548237389
345.4367773,-4.70652887
345.3795763,-5.075875661
345.3223753,-5.445222451
345.2651744,-5.339694797
345.2079734,-4.970348006
345.1507724,-4.284418253
345.0935715,-3.862307635
345.0363705,-3.38743319
344.9791695,-2.912558746
344.9219686,-2.121101338
344.8647676,-1.487935411
344.8075666,-1.540699238
344.7503657,-1.646226893
344.6931647,-1.857282202
344.6359637,-2.06833751
344.5787627,-2.121101338
344.5215618,-2.332156646
344.4643608,-2.754267264
344.4071598,-3.229141709
344.3499589,-3.070850227
344.2927579,-3.123614054
344.2355569,-2.912558746
344.178356,-2.965322573
344.121155,-2.807031091
344.063954,-2.701503437
344.0067531,-2.332156646
343.9495521,-2.015573683
343.8923511,-2.279392819
343.8351502,-2.279392819
343.7779492,-2.490448128
343.7207482,-2.173865165
343.6635473,-2.173865165
343.6063463,-2.173865165
343.5491453,-2.332156646
343.4919443,-2.437684301
343.4347434,-2.226628992
343.3775424,-2.279392819
343.3203414,-2.332156646
343.2631405,-2.912558746
343.2059395,-3.070850227
343.1487385,-3.229141709
343.0915376,-3.334669363
343.0343366,-3.545724672
342.9771356,-4.33718208
342.9199347,-4.548237389
342.8627337,-4.759292698
342.8055327,-4.389945907
342.7483318,-4.231654426
342.6911308,-4.126126771
342.6339298,-3.915071462
342.5767289,-3.492960845
342.5195279,-2.595975782
342.4623269,-2.384920474
342.4051259,-2.121101338
342.347925,-2.64873961
342.290724,-2.807031091
342.233523,-3.281905536
342.1763221,-3.598488499
342.1191211,-4.178890598
342.0619201,-5.128639488
342.0047192,-5.28693097
341.9475182,-5.445222451
341.8903172,-5.234167142
341.8331163,-5.392458624
341.7759153,-5.339694797
341.7187143,-5.28693097
341.6615134,-5.128639488
341.6043124,-4.601001216
341.5471114,-4.548237389
341.4899105,-4.442709734
341.4327095,-4.284418253
341.3755085,-3.756779981
341.3183075,-3.176377882
341.2611066,-2.807031091
341.2039056,-2.384920474
341.1467046,-2.332156646
341.0895037,-2.121101338
341.0323027,-1.857282202
340.9751017,-1.646226893
340.9179008,-1.857282202
340.8606998,-2.279392819
340.8034988,-2.437684301
340.7462979,-2.595975782
340.6890969,-2.64873961
340.6318959,-3.123614054
340.574695,-3.598488499
340.517494,-3.704016154
340.460293,-3.809543808
340.403092,-3.651252326
340.3458911,-3.598488499
340.2886901,-3.440197018
340.2314891,-3.176377882
340.1742882,-2.437684301
340.1170872,-1.646226893
340.0598862,-1.171352448
340.0026853,-1.013060966
339.9454843,-0.960297139
339.8882833,-0.960297139
339.8310824,-1.065824794
339.7738814,-1.224116275
339.7166804,-1.857282202
339.6594795,-2.332156646
339.6022785,-2.595975782
339.5450775,-2.543211955
339.4878766,-2.595975782
339.4306756,-2.754267264
339.3734746,-2.965322573
339.3162736,-3.123614054
339.2590727,-3.123614054
339.2018717,-3.123614054
339.1446707,-3.598488499
339.0874698,-4.073362944
339.0302688,-4.33718208
338.9730678,-4.073362944
338.9158669,-3.756779981
338.8586659,-3.440197018
338.8014649,-3.334669363
338.744264,-3.0180864
338.687063,-2.543211955
338.629862,-2.332156646
338.5726611,-2.437684301
338.5154601,-2.965322573
338.4582591,-3.334669363
338.4010582,-3.809543808
338.3438572,-4.126126771
338.2866562,-4.442709734
338.2294552,-5.28693097
338.1722543,-5.867333069
338.1150533,-6.236679859
338.0578523,-6.289443686
338.0006514,-6.394971341
337.9434504,-6.500498995
337.8862494,-6.394971341
